0.523268947
0.530836334
0.530954565
0.525972758
0.533480099
0.54611245
0.560215146
0.573209624
0.586227588
0.608540451
0.636461067
0.659707144
0.68422712
0.715640069
0.720296454
0.740569182
0.705720592
0.692554318
0.656365085
0.634865482
0.599702646
0.587645178
0.569872431
0.56799296
0.559570819
0.564647896
0.565912681
0.560302599
0.558054018
0.55639326
0.56067602
0.564014275
0.565845357
0.57535923
0.590059015
0.618454732
0.665204327
0.730952704
0.8099835
0.855262715
0.87578401
0.8973427
0.900452876
0.91750313
0.914779424
0.937941274
0.930845877
0.918439893
0.880803374
0.854578084
0.830455876
0.829010505
0.833569538
0.876015072
0.913013023
0.971070584
0.981437581
0.993459766
0.985605798
0.950302211
0.918330775
0.882283314
0.856106766
0.843199114
0.845618783
0.879608048
0.907952489
0.952402252
0.96727022
0.998054335
1.018074743
1.038676604
1.064292824
1.056670153
1.068253943
1.057235955
1.106191717
1.15909221
1.269523426
1.351360696
1.417616792
1.465860277
1.42546438
1.430818471
1.419230557
1.468792781
1.464598507
1.482091491
1.484280365
1.459014734
1.481352267
1.474703135
1.484355613
1.437445068
1.487179874
1.489005359
1.500605097
1.400172121
1.382846889
1.279118072
1.190774002
1.083113451
1.052318884
1.026561667
0.991685969
0.94451379
0.935271533
0.929967248
0.979028675
1.030585306
1.072307991
1.091221126
1.090465271
1.101627835
1.099855556
1.046355771
1.043642713
1.010087235
1.040397835
0.988119925
0.984096383
1.020324692
1.073365004
1.127846582
1.058652583
1.056795311
1.056513005
1.099094048
1.103814133
1.126851765
1.18992818
1.240186557
1.275992066
1.240023468
1.231337608
1.146476534
1.147868838
1.141913054
1.212645351
1.217425866
1.276387141
1.262501764
1.249625325
1.232357099
1.220258963
1.265470313
1.232979419
1.247755693
1.223822982
1.292550796
1.339234982
1.429502474
1.485705113
1.600176224
1.667157792
1.746879507
1.778525078
1.838565199
1.845413599
1.866331794
1.919316786
1.992304223
2.013127213
1.99549717
1.964227973
1.919784029
1.891497323
1.878882762
1.900063046
1.928669609
1.95591499
1.988429486
2.010056458
2.01914781
1.958617623
1.939728822
1.922080916
1.960054549
1.951461421
1.982626339
1.963336107
1.974125181
1.935294773
1.868452441
1.837309428
1.841754664
1.879153177
1.905995121
1.921543955
1.980314012
1.96346674
1.911491572
1.89723795
1.884144222
1.888806402
1.86165387
1.808725213
1.776325659
1.690909305
1.666073163
1.658826028
1.598002838
1.534070401
1.477748033
1.445482364
1.405877843
1.337303237
1.289743171
1.269117939
1.237291645
1.178444005
1.141899506
1.112194086
1.059774698
1.037807002
0.999716425
1.027229653
1.034139164
1.12153476
1.232207201
1.296024975
1.039927947
1.019196205
0.923483146
0.920547235
0.742568034
0.732043945
0.724933836
0.700136941
0.606594669
