0.0444948
0.0443834
0.0442581
0.0442124
0.0441836
0.044229
0.044323
0.0444508
0.0446677
0.0450671
0.0455523
0.0462644
0.0471426
0.0482981
0.0497579
0.0514253
0.0534786
0.0557737
0.0582784
0.0611353
0.0640714
0.0672398
0.0706123
0.0739184
0.0774667
0.0810062
0.0843748
0.0878632
0.0911434
0.0943183
0.0974172
0.10022
0.102969
0.105577
0.107886
0.11024
0.112508
0.114735
0.117014
0.119181
0.121443
0.123662
0.125693
0.127717
0.129541
0.131149
0.132563
0.133699
0.134612
0.135268
0.135628
0.135743
0.135577
0.135133
0.134391
0.133382
0.132058
0.130483
0.128782
0.126844
0.124818
0.122787
0.120731
0.118757
0.116837
0.114986
0.113342
0.111741
0.11027
0.10901
0.107807
0.106775
0.10583
0.105003
0.104289
0.103628
0.103035
0.102519
0.102034
0.101591
0.101172
0.100748
0.100376
0.0999668
0.0995621
0.0991372
0.0986905
0.0982358
0.0977189
0.0971866
0.0966538
0.0961133
0.0955655
0.0950555
0.0945548
0.0941317
0.0937451
0.0934321
0.0931877
0.0930184
0.0929722
0.093
0.0931552
0.0933947
0.0937722
0.0942669
0.0949103
0.0956931
0.0966562
0.097709
0.099005
0.100374
0.101998
0.103802
0.105685
0.107801
0.110048
0.112438
0.115027
0.117605
0.120389
0.123281
0.126118
0.129142
0.132094
0.135128
0.138178
0.141065
0.14401
0.146838
0.14948
0.152095
0.154528
0.156914
0.159255
0.161439
0.163721
0.166011
0.168396
0.171063
0.173878
0.177093
0.180684
0.1845
0.18889
0.193599
0.198841
0.204658
0.210741
0.217548
0.224809
0.232315
0.240572
0.248857
0.257695
0.266771
0.27561
0.284782
0.293652
0.302414
0.311155
0.319142
0.327041
0.33439
0.341109
0.347418
0.352926
0.357952
0.362487
0.366214
0.369588
0.37237
0.374766
0.376831
0.378462
0.379907
0.381086
0.382059
0.382897
0.383559
0.384082
0.38445
0.384697
0.384757
0.38469
0.384455
0.384047
0.383531
0.382841
0.382063
0.381172
0.380191
0.379194
0.378073
0.37691
0.375747
0.374436
0.373174
0.371776
0.370379
0.368976
0.367557
0.366074
0.364602
0.363035
0.361591
0.360063
0.35868
0.357235
0.355928
0.354629
0.353419
0.352328
0.35131
0.350385
0.34952
0.348767
0.348002
0.347438
0.346849
0.346412
0.345933
0.345488
0.345111
0.344741
0.34443
0.344083
0.343812
0.343526
0.343261
