0.0544335
0.0542774
0.0541613
0.0540967
0.0540778
0.0541121
0.0542014
0.0544086
0.0547412
0.0551741
0.0558239
0.0567246
0.0578333
0.0593482
0.0612201
0.0634165
0.0660579
0.0690491
0.0723481
0.0760699
0.0799281
0.0840406
0.0884467
0.0928102
0.0974189
0.102014
0.106436
0.111007
0.115329
0.119506
0.123564
0.127293
0.130913
0.134321
0.137358
0.140512
0.143482
0.146387
0.149349
0.152209
0.155152
0.158045
0.160717
0.163358
0.165772
0.167882
0.169759
0.171253
0.172444
0.173326
0.173837
0.174034
0.173863
0.173345
0.17242
0.171185
0.169521
0.167497
0.165295
0.162783
0.160126
0.157476
0.154729
0.152146
0.149635
0.147181
0.145007
0.142915
0.141023
0.139351
0.1378
0.136458
0.135252
0.13418
0.133264
0.132416
0.131651
0.131007
0.130378
0.12984
0.129301
0.1288
0.128317
0.12782
0.127308
0.126799
0.126239
0.125668
0.125042
0.124392
0.123744
0.123055
0.122376
0.12176
0.121135
0.120601
0.120138
0.119754
0.119477
0.119313
0.119279
0.119357
0.119574
0.119913
0.120445
0.121131
0.121965
0.123016
0.124255
0.125681
0.127374
0.129202
0.131313
0.133648
0.136142
0.138905
0.141827
0.144918
0.148281
0.151619
0.155225
0.158919
0.162547
0.166379
0.170133
0.173938
0.177811
0.181456
0.185173
0.188782
0.192168
0.195542
0.198681
0.201795
0.20486
0.207751
0.210746
0.213717
0.21677
0.220156
0.223689
0.227804
0.232367
0.237234
0.242845
0.248833
0.255449
0.262736
0.270273
0.278655
0.287518
0.296716
0.306781
0.316809
0.327431
0.338244
0.348706
0.359529
0.369892
0.38008
0.390107
0.399291
0.408319
0.416616
0.4242
0.431299
0.437502
0.443128
0.448104
0.452241
0.455947
0.458993
0.461594
0.463827
0.465629
0.467223
0.468508
0.469606
0.470536
0.471256
0.471846
0.472273
0.472516
0.472609
0.472561
0.472289
0.471871
0.471334
0.470627
0.469809
0.468879
0.467822
0.466722
0.465483
0.464235
0.462894
0.461458
0.459945
0.458437
0.456868
0.455316
0.453675
0.45206
0.450433
0.448764
0.447178
0.44559
0.444054
0.442574
0.441115
0.439787
0.438494
0.43731
0.436286
0.435279
0.434399
0.433566
0.432837
0.432221
0.431643
0.431157
0.430661
0.430188
0.429775
0.429396
0.429047
0.428714
0.428333
0.428004
0.427676
