0.550703092
0.538969885
0.517490565
0.525594741
0.529234266
0.546067023
0.546869468
0.57035343
0.586212635
0.615694431
0.625220803
0.667671796
0.68689374
0.727253956
0.739560135
0.752264522
0.718787408
0.693955644
0.660348324
0.637772784
0.605761674
0.593196964
0.581889281
0.577970091
0.565842847
0.565791109
0.561127248
0.557982777
0.55745288
0.560066032
0.565678708
0.565905288
0.564491258
0.574964232
0.589490692
0.620108002
0.665970557
0.732843974
0.810642266
0.855750565
0.884226507
0.905572573
0.907092729
0.920534026
0.922153208
0.94460728
0.931216248
0.911497219
0.86898228
0.847288685
0.823248054
0.827408439
0.83006157
0.879002872
0.918338176
0.976830061
0.983664816
0.991564525
0.983228
0.943973302
0.912290959
0.875904232
0.850733828
0.840178051
0.843531873
0.876510227
0.903689901
0.945591933
0.966510577
0.992302611
1.015204866
1.035173617
1.061897977
1.052596776
1.063185604
1.053913064
1.103593286
1.155316245
1.26940164
1.34564248
1.420875453
1.46974029
1.432659079
1.431678425
1.419329524
1.477047073
1.469923989
1.478504548
1.474549627
1.441832237
1.462650277
1.459868901
1.467654695
1.41885491
1.473240625
1.483980067
1.520470122
1.410226913
1.385945802
1.276616657
1.183448491
1.073391684
1.037491484
1.012514737
0.978454036
0.929700163
0.923723355
0.920313008
0.970210051
1.021474955
1.061516767
1.084756264
1.081724342
1.095521266
1.09351192
1.040211279
1.032483191
0.997196432
1.025594151
0.978731341
0.973391339
1.013681383
1.06246139
1.123298107
1.054183765
1.052001642
1.047513956
1.087491
1.096285846
1.113728788
1.178481128
1.229236257
1.277426247
1.236373589
1.227000904
1.13672765
1.139029691
1.134075812
1.210157998
1.219620722
1.279030945
1.264372473
1.246060835
1.221665223
1.202698568
1.250919915
1.216646188
1.235554136
1.21655793
1.28934441
1.326302165
1.411203943
1.477004929
1.602820468
1.674242586
1.762657533
1.79131635
1.848745358
1.839174598
1.875723709
1.945776682
1.99945984
2.00995561
1.971315642
1.967763598
1.947261865
1.916857155
1.906802636
1.928458758
1.968231762
1.984701059
1.972002697
1.997921841
2.018684071
1.967650537
1.951508365
1.917580524
1.962819455
1.949037238
1.996679471
2.002222918
2.016342654
1.979103902
1.942917051
1.883142255
1.900925015
1.941808648
1.953534382
1.924720592
1.879714436
1.923936549
1.909281068
1.955275315
1.904740253
1.890897103
1.862965759
1.850421704
1.868355373
1.809658143
1.791071961
1.770259894
1.682210429
1.61307664
1.483927576
1.449624097
1.402049619
1.363820826
1.304204061
1.293122549
1.207873632
1.176441638
1.103793348
1.113746098
1.059162962
1.046989406
1.017089015
1.065462655
1.16658229
1.283562145
1.287902331
1.270917607
1.250555529
1.283803594
1.17633865
0.892041318
0.837890864
0.718400559
0.750078855
0.607984974
0.579871165
