0.0465041
0.0463485
0.0462297
0.0462051
0.0461827
0.0461915
0.0463285
0.0464971
0.046735
0.0470968
0.047586
0.0482987
0.0491546
0.0502865
0.0517318
0.053413
0.0554359
0.0577459
0.0602627
0.0631132
0.0660538
0.0692163
0.0726101
0.0759395
0.0794437
0.0829849
0.0863582
0.0898361
0.09309
0.0962082
0.0992988
0.102107
0.104801
0.107391
0.109695
0.112064
0.11432
0.116482
0.118769
0.120926
0.12315
0.125356
0.127342
0.129353
0.131143
0.132713
0.134122
0.135217
0.136116
0.136733
0.137072
0.13717
0.136963
0.136509
0.135744
0.134748
0.13343
0.131847
0.130155
0.128224
0.126231
0.124218
0.122177
0.120215
0.118323
0.116492
0.114837
0.11326
0.1118
0.110544
0.109358
0.108325
0.107402
0.106568
0.105868
0.105205
0.104633
0.104117
0.103639
0.1032
0.102779
0.102382
0.101998
0.101605
0.101201
0.100775
0.100312
0.0998582
0.0993573
0.0988331
0.0983048
0.0977428
0.0972158
0.0966903
0.0961971
0.0957549
0.0953674
0.0950565
0.0948117
0.0946573
0.094599
0.0946228
0.0947708
0.0950138
0.0953861
0.0958903
0.0965247
0.0973009
0.0982555
0.09932
0.100605
0.101977
0.103596
0.105387
0.107278
0.109388
0.111631
0.114001
0.116584
0.119147
0.121932
0.124809
0.127668
0.13067
0.133644
0.136674
0.139749
0.142646
0.145589
0.148395
0.151039
0.153609
0.155991
0.15834
0.160614
0.162762
0.164987
0.167248
0.169623
0.17231
0.175117
0.178367
0.181935
0.185745
0.19006
0.194702
0.199894
0.205671
0.211686
0.218446
0.225641
0.233056
0.241216
0.24941
0.258136
0.267078
0.275775
0.284829
0.293581
0.302202
0.310821
0.318708
0.326512
0.333753
0.340401
0.346644
0.352101
0.357071
0.361592
0.365252
0.368619
0.371374
0.37378
0.375808
0.377452
0.378881
0.38006
0.380996
0.381844
0.382464
0.382994
0.383364
0.383592
0.383676
0.383628
0.383388
0.383027
0.382523
0.381848
0.381042
0.380104
0.37903
0.377928
0.376714
0.375403
0.374141
0.372731
0.371401
0.370001
0.368585
0.367238
0.365883
0.364526
0.363193
0.361852
0.360557
0.359271
0.358046
0.356827
0.355645
0.354534
0.353437
0.352451
0.351508
0.350636
0.349822
0.349072
0.348363
0.347759
0.34718
0.346725
0.34626
0.345795
0.345423
0.345046
0.344743
0.344391
0.344103
0.343806
0.343495
