0.510892736
0.505449413
0.487436933
0.491512975
0.496074752
0.528248013
0.542471206
0.561132158
0.57912914
0.598120418
0.652622701
0.669965136
0.696729037
0.687970268
0.708451309
0.723650831
0.720593995
0.692894693
0.654997979
0.630538293
0.59929313
0.589957826
0.570563808
0.570914155
0.557286253
0.564371312
0.562129784
0.559543908
0.55611201
0.557632274
0.5615728
0.566465105
0.56456984
0.57597945
0.587517209
0.617525543
0.664407213
0.733088931
0.814143847
0.853036304
0.873884563
0.896274415
0.897470722
0.915544989
0.911474491
0.937746519
0.931046349
0.915824981
0.875691407
0.848724782
0.824895876
0.828502217
0.83049333
0.873388438
0.91255607
0.973955515
0.984146873
0.987188304
0.974164266
0.940891463
0.909248657
0.876729244
0.851435345
0.838234139
0.840248423
0.874326714
0.904275054
0.949463553
0.960798175
0.991051738
1.007795496
1.035193878
1.061440936
1.054133713
1.065536421
1.053710544
1.104313408
1.15055163
1.264406232
1.337674861
1.414273464
1.446927221
1.410017541
1.406980842
1.403044914
1.462397998
1.464424069
1.488628167
1.480744843
1.4445048
1.457909812
1.452345078
1.463259971
1.412224105
1.465817944
1.463631819
1.508445391
1.404832102
1.391029036
1.276210771
1.186789071
1.078529502
1.046883217
1.018177991
0.983213676
0.93160853
0.927802594
0.921501759
0.974156086
1.023746639
1.067775409
1.090840196
1.092820024
1.106507007
1.102104481
1.04589837
1.040829339
1.006224015
1.034832419
0.983987021
0.980071506
1.017287249
1.067517347
1.125250331
1.056921009
1.055558376
1.052619673
1.09609224
1.102590355
1.122591393
1.185965463
1.236608646
1.281262962
1.242842344
1.233072624
1.143734029
1.14191004
1.13448435
1.20727423
1.213591462
1.278064854
1.266464236
1.248374507
1.226065234
1.206329834
1.258193213
1.220526515
1.238633995
1.219381014
1.295495949
1.337963988
1.420046608
1.471626173
1.589204011
1.666356956
1.743974491
1.760471603
1.815238771
1.825029627
1.887208343
1.903280212
1.937038358
1.92870996
1.93485423
1.965251509
1.901392344
1.859541046
1.843286158
1.900202819
1.937152138
1.972552738
1.94197215
1.98384889
1.969467254
1.965125326
1.918145149
1.936483426
1.964764276
1.977224607
1.978194926
1.966856856
1.969319411
1.898044855
1.85975982
1.787321692
1.817265041
1.806455454
1.83473923
1.816408631
1.817687877
1.831221882
1.839507182
1.846844871
1.848942399
1.814038311
1.799557615
1.82346406
1.862004225
1.828309006
1.720428713
1.640586036
1.643452676
1.601154267
1.490386678
1.388147368
1.331591113
1.361821303
1.335716293
1.331197545
1.244708845
1.163312412
1.105726262
1.05904175
1.056792152
1.017421854
0.95640277
0.947154919
0.967512038
1.105784794
1.025433881
1.011714546
0.849844475
0.816982881
0.734557124
0.721825971
0.647394684
0.632447399
0.58818781
0.632514591
0.573258502
