0.532285735
0.532770264
0.562160639
0.527243278
0.524838085
0.50867185
0.533698392
0.551554139
0.587090006
0.616430818
0.624849094
0.657958949
0.678186032
0.703541384
0.714165436
0.724282087
0.708264954
0.686164393
0.657437698
0.642642122
0.61003647
0.596739088
0.572765345
0.568786726
0.555328212
0.563878608
0.560221881
0.556592526
0.548806462
0.549582294
0.554726113
0.561298449
0.563992669
0.573624132
0.586900323
0.613844625
0.663430878
0.730229603
0.8160649
0.860236758
0.882115175
0.899351636
0.897824978
0.914818889
0.909985174
0.935749733
0.927520849
0.914570353
0.872402646
0.847692088
0.825132628
0.826491781
0.828615917
0.871371866
0.911854344
0.969824955
0.981153731
0.98927261
0.981363374
0.943070494
0.908991061
0.874614553
0.852912093
0.843717015
0.846737401
0.877933067
0.90416407
0.948247064
0.963056816
0.992859386
1.01146546
1.035891686
1.063667143
1.056615857
1.068017303
1.057020139
1.106405757
1.1584269
1.266208484
1.33983073
1.412430998
1.462759416
1.426398869
1.425725232
1.414964427
1.469227454
1.468755442
1.483295115
1.486041548
1.447369632
1.465540032
1.452851883
1.466148838
1.415464354
1.478898274
1.478870188
1.517833334
1.406485525
1.389831479
1.280108114
1.190002564
1.080366425
1.047313705
1.020657311
0.987858879
0.938410903
0.930548388
0.925858187
0.974790455
1.026674611
1.067658384
1.09447543
1.094779057
1.104716561
1.096115936
1.040316736
1.036653813
1.004020407
1.034055206
0.985477457
0.980151662
1.018305377
1.067395157
1.129772383
1.059636314
1.057543368
1.05199788
1.092973892
1.10146904
1.121517738
1.188111005
1.235757712
1.280183953
1.237158136
1.228596078
1.139914869
1.141278759
1.136612708
1.210911299
1.224403238
1.28125317
1.268450745
1.244670308
1.226075848
1.206636944
1.261752186
1.226680053
1.244667317
1.219100155
1.292368717
1.333358181
1.421698997
1.474226929
1.588565707
1.655509775
1.737103357
1.773150141
1.832939438
1.835912437
1.87461498
1.903089987
1.952285314
1.939580524
1.941182832
1.94068398
1.926141216
1.867952862
1.871737174
1.909087183
1.973950685
1.972337785
1.951510369
1.966344792
1.978572951
1.925265781
1.899174753
1.90387462
1.954171615
1.960936818
1.992430992
1.999651282
1.991320229
1.935996881
1.918777136
1.86792421
1.88190164
1.85056897
1.909469135
1.89954372
1.93537845
1.912300222
1.881706593
1.831071036
1.819277336
1.873813152
1.797825215
1.778430531
1.663375952
1.702229821
1.697387873
1.665379096
1.681022284
1.543087972
1.503124476
1.373794633
1.389284244
1.382608922
1.415430741
1.313527051
1.225302425
1.13570916
1.088549735
1.072866519
1.080799384
1.080497138
1.041676223
1.03183501
1.040557182
1.08224121
1.002690653
0.970433031
0.929989883
0.935858999
0.920425549
0.806711872
0.781584426
0.687766035
0.714644943
0.830415147
0.787508777
