0.0469579
0.046817
0.0466632
0.0466015
0.0465991
0.0466394
0.0467013
0.0468167
0.0470445
0.0474189
0.0478709
0.0485289
0.0493376
0.0504377
0.0518037
0.05338
0.0553107
0.0574795
0.0598443
0.0625344
0.0653129
0.0682729
0.0714534
0.0745893
0.0779384
0.0812775
0.084463
0.0877739
0.0908991
0.0939153
0.0968747
0.0995805
0.10223
0.104765
0.107015
0.109331
0.111573
0.113733
0.115966
0.11808
0.120272
0.122409
0.12435
0.126291
0.128022
0.129533
0.13085
0.131899
0.13272
0.133287
0.133571
0.133607
0.13338
0.132891
0.132114
0.131092
0.129778
0.128229
0.126576
0.124705
0.12277
0.120848
0.118891
0.117002
0.115189
0.113433
0.11185
0.110321
0.108923
0.107711
0.106556
0.105571
0.104665
0.103864
0.103175
0.102543
0.101979
0.101485
0.101018
0.100594
0.100188
0.099798
0.0994439
0.0990622
0.0986659
0.0982708
0.0978387
0.097387
0.0968795
0.0963699
0.0958536
0.0952965
0.0947594
0.0942383
0.0937367
0.0933006
0.0928916
0.0925677
0.0923097
0.0921403
0.0920506
0.0920587
0.09218
0.0923774
0.0927258
0.0931825
0.0937729
0.094498
0.095392
0.0963829
0.0976079
0.0988989
0.10044
0.102155
0.103969
0.105985
0.108159
0.110443
0.112962
0.115466
0.118204
0.121048
0.123855
0.126861
0.129832
0.132874
0.135956
0.138851
0.141802
0.1446
0.147192
0.149724
0.152018
0.154274
0.156449
0.15852
0.160677
0.16287
0.165181
0.167779
0.17049
0.173583
0.176959
0.180571
0.184688
0.189142
0.194117
0.19972
0.205554
0.212087
0.219054
0.226336
0.234255
0.242203
0.250701
0.259419
0.267919
0.276786
0.285335
0.293823
0.302257
0.310019
0.317653
0.324812
0.331345
0.337518
0.342932
0.347835
0.352197
0.355809
0.359059
0.361751
0.364067
0.366067
0.36768
0.369091
0.370252
0.371196
0.372041
0.372673
0.373233
0.373601
0.373877
0.373969
0.373966
0.373772
0.373456
0.372962
0.372363
0.371623
0.370814
0.369867
0.368949
0.367903
0.366808
0.365719
0.364517
0.363317
0.362096
0.36084
0.35957
0.358282
0.356959
0.355661
0.354252
0.352955
0.351552
0.350234
0.348936
0.34769
0.346483
0.345382
0.34435
0.343399
0.342473
0.34168
0.340919
0.340246
0.339659
0.339145
0.33868
0.338233
0.337792
0.337445
0.337107
0.336798
0.336502
0.33624
0.335962
0.335706
