0.0454611
0.0453212
0.0452048
0.0451591
0.0451517
0.0451878
0.0453001
0.0454626
0.0456637
0.046025
0.0464762
0.0471129
0.0479067
0.0489638
0.0502774
0.0518157
0.0536562
0.0557639
0.0580469
0.0606271
0.0633148
0.066193
0.0692567
0.0723017
0.0755251
0.0787461
0.0818246
0.0850063
0.0880214
0.0909179
0.0937748
0.0963918
0.098886
0.101308
0.103446
0.105619
0.107753
0.109761
0.111878
0.11391
0.115971
0.118033
0.119884
0.121727
0.123404
0.124828
0.126127
0.12714
0.12793
0.128504
0.128775
0.128843
0.128638
0.128199
0.127477
0.126492
0.125258
0.123744
0.122154
0.120314
0.118401
0.116508
0.114556
0.112702
0.110897
0.109164
0.107606
0.106086
0.104714
0.103513
0.102384
0.1014
0.100516
0.0997338
0.0990508
0.0984226
0.0978647
0.097397
0.0969349
0.0965192
0.0961189
0.0957372
0.095392
0.0950095
0.0946392
0.0942469
0.0938262
0.093392
0.0929172
0.0924357
0.0919276
0.0913995
0.0908685
0.0903865
0.0898916
0.0894554
0.0890652
0.0887453
0.0885062
0.0883242
0.0882559
0.0882467
0.0883582
0.0885446
0.0888784
0.0893054
0.0898599
0.0905239
0.0913933
0.0923332
0.0934961
0.0947175
0.0961871
0.0978147
0.0995249
0.10146
0.103515
0.1057
0.108074
0.110457
0.113057
0.115773
0.118466
0.121344
0.124182
0.127117
0.130084
0.132886
0.135702
0.138377
0.140848
0.143269
0.145467
0.147612
0.14969
0.151645
0.153703
0.155827
0.158061
0.16059
0.163207
0.166196
0.169457
0.172927
0.176909
0.181186
0.185963
0.191296
0.196881
0.203187
0.209898
0.21691
0.224634
0.232318
0.240545
0.249066
0.257352
0.266051
0.27444
0.282779
0.291069
0.29874
0.306311
0.313379
0.319865
0.326
0.331383
0.336281
0.34067
0.344274
0.347525
0.350202
0.352532
0.354521
0.356132
0.357533
0.358717
0.359658
0.360528
0.361186
0.361753
0.362138
0.362383
0.362495
0.362479
0.36228
0.36193
0.36147
0.360882
0.360161
0.359377
0.358493
0.357596
0.356602
0.355516
0.354507
0.353307
0.352136
0.350895
0.349611
0.34837
0.347055
0.345718
0.344375
0.342978
0.341625
0.340246
0.338891
0.33758
0.336287
0.335132
0.333938
0.332914
0.331895
0.33097
0.330172
0.329364
0.328713
0.328108
0.327564
0.327029
0.32661
0.326153
0.325772
0.325405
0.325103
0.324802
0.324502
0.324276
0.323979
