0.55068957
0.559005131
0.539678586
0.513275623
0.516972587
0.537981873
0.558323761
0.568497719
0.592459626
0.611640609
0.637704362
0.671614614
0.703827803
0.742137496
0.734639321
0.735375611
0.715635479
0.694738966
0.667618537
0.638329138
0.610086499
0.594119264
0.574346785
0.569043288
0.55433468
0.558115253
0.556099785
0.557871005
0.557520016
0.559202287
0.562447416
0.564545339
0.565632702
0.576322779
0.589383335
0.620271663
0.669914257
0.737265961
0.817674758
0.8567708
0.883445947
0.903357563
0.904465274
0.918857588
0.917882491
0.945291236
0.935724932
0.918608288
0.877877151
0.851953275
0.82668776
0.827108459
0.828715803
0.875578385
0.914924995
0.977079025
0.983230622
0.990861881
0.981257652
0.945715567
0.914463181
0.880543832
0.856017683
0.843473409
0.847777444
0.882545571
0.910258563
0.946810211
0.958059403
0.987948681
1.015461461
1.045466301
1.071379931
1.055749339
1.064603706
1.053674919
1.104555391
1.155751042
1.266574634
1.347850631
1.419318281
1.463003673
1.436492354
1.436876582
1.432757883
1.473292023
1.467836771
1.483480838
1.487839278
1.4610813
1.481360729
1.472369325
1.474125119
1.422406313
1.478091746
1.485258422
1.51420921
1.404314961
1.378664736
1.272293425
1.18274974
1.079482803
1.042718364
1.019298115
0.983569195
0.937902966
0.92815788
0.924347417
0.974039758
1.028488923
1.06901642
1.091826706
1.088512547
1.100791466
1.096916997
1.044228117
1.040609197
1.006081402
1.034474946
0.984989558
0.980323309
1.017128669
1.066860947
1.127183712
1.060320434
1.057354129
1.054289814
1.092392871
1.101354439
1.119406153
1.186649815
1.237441023
1.282613344
1.242229796
1.23087303
1.1437877
1.144774292
1.137951388
1.210050925
1.222419979
1.281792556
1.269775304
1.251094178
1.233031338
1.212369186
1.259895679
1.223326678
1.240137383
1.226664857
1.298317284
1.346031438
1.425374749
1.491822532
1.616698698
1.680733662
1.760958284
1.78394043
1.865928906
1.885025383
1.934506577
1.944203004
1.957793908
1.967857402
1.947460626
1.97226071
1.918307169
1.907005084
1.898239441
1.918656127
1.952199015
1.944282009
1.960567881
1.992472882
2.017935563
1.995773185
1.965520955
1.965894424
2.005720281
2.036334234
2.051352152
2.020019808
2.006383751
2.000191558
1.996978799
1.93606412
1.934318535
1.892218776
1.947897999
1.922143477
1.903196121
1.857058945
1.82120252
1.861309366
1.889071978
1.934825995
1.93642887
1.884746901
1.854697739
1.765104085
1.735198384
1.635736192
1.652628686
1.583257675
1.528706257
1.456728592
1.408239965
1.406367639
1.343760629
1.354945801
1.276561401
1.211645954
1.147283215
1.112476341
1.093071306
1.04768839
1.026905644
1.045315878
1.082558359
1.179681417
1.29463379
1.526150084
1.652334264
1.586327585
1.31330123
1.011559315
0.823287877
0.781838837
0.661150955
0.631908761
0.567266577
