0.0539477
0.0537859
0.0536497
0.0536129
0.0535759
0.053623
0.0537587
0.0539147
0.0541995
0.0545893
0.0551342
0.0559093
0.0568552
0.0581576
0.0597719
0.0616571
0.0639563
0.0665235
0.0693732
0.0725953
0.0759017
0.0794827
0.0832843
0.0870311
0.0909974
0.0949534
0.0987702
0.102705
0.106402
0.109995
0.113481
0.116661
0.119753
0.122693
0.125321
0.127996
0.13058
0.133077
0.135653
0.138111
0.140638
0.143115
0.145381
0.147625
0.14966
0.151411
0.152963
0.154206
0.155179
0.15587
0.156229
0.156319
0.156097
0.155558
0.154691
0.153523
0.152028
0.150221
0.148306
0.146117
0.143836
0.141583
0.139257
0.137056
0.134904
0.13283
0.130975
0.129183
0.127533
0.126109
0.124749
0.123583
0.122532
0.121578
0.120777
0.120018
0.119366
0.118785
0.118234
0.117743
0.117266
0.116813
0.116383
0.115943
0.115487
0.115032
0.11452
0.114017
0.113459
0.112866
0.11227
0.111638
0.111034
0.11044
0.10988
0.109375
0.108941
0.108567
0.108289
0.108094
0.108038
0.108061
0.108221
0.108491
0.108901
0.10948
0.110183
0.11107
0.112124
0.113342
0.114778
0.116331
0.118127
0.120154
0.122267
0.124653
0.127178
0.129853
0.132769
0.135681
0.138825
0.142078
0.145297
0.148692
0.152023
0.155403
0.158822
0.161997
0.165239
0.168321
0.17122
0.174066
0.176727
0.179363
0.181969
0.184442
0.187026
0.189632
0.192321
0.195286
0.198356
0.201925
0.205894
0.210159
0.215032
0.220279
0.226079
0.232512
0.239104
0.246594
0.254558
0.26283
0.271918
0.280956
0.29057
0.300401
0.309936
0.319851
0.329354
0.338741
0.348018
0.356484
0.364863
0.372603
0.379707
0.386329
0.392142
0.397371
0.402082
0.40595
0.409452
0.412325
0.414812
0.416949
0.418682
0.420188
0.421424
0.422445
0.423305
0.423994
0.424532
0.424937
0.425144
0.425247
0.425134
0.424881
0.424424
0.423897
0.423187
0.422412
0.42156
0.42059
0.419684
0.418648
0.417591
0.416498
0.415332
0.414095
0.412793
0.411384
0.410059
0.40845
0.406963
0.405345
0.403617
0.402035
0.400295
0.398685
0.397036
0.395498
0.394011
0.392677
0.391396
0.390248
0.389139
0.388213
0.387345
0.386555
0.385972
0.385339
0.384856
0.384352
0.383887
0.383497
0.383076
0.382756
0.382407
0.382124
0.381803
0.381474
