0.523787311
0.524037173
0.531980062
0.531503671
0.535156439
0.537507947
0.559353806
0.591481856
0.603750678
0.622192532
0.631719665
0.676152059
0.703465558
0.715698147
0.717513376
0.725209022
0.710572884
0.693270447
0.662835212
0.64828224
0.612756765
0.598704356
0.573690275
0.574784701
0.561378549
0.567277592
0.560738362
0.559586484
0.555330855
0.558086366
0.56505834
0.569661249
0.568631239
0.574604688
0.589453897
0.622151455
0.668887625
0.73502246
0.813054735
0.857539592
0.882495736
0.900795477
0.904674639
0.923685193
0.922104065
0.950748048
0.932417284
0.921563388
0.872539286
0.851036689
0.822997427
0.831701327
0.834616857
0.880575537
0.917655122
0.974981229
0.985364157
0.993038636
0.985272791
0.949219354
0.914884568
0.881160643
0.854287355
0.842966084
0.848372281
0.883251555
0.911445338
0.950252522
0.96764632
1.00291881
1.024141222
1.045337956
1.067581443
1.058585922
1.068345666
1.058757093
1.10826368
1.160287073
1.27065397
1.350222535
1.422438962
1.466802149
1.425501417
1.433447773
1.425529754
1.486303298
1.48467861
1.495822228
1.491927169
1.454918827
1.475010014
1.475582285
1.48167225
1.432310963
1.482124951
1.493852516
1.535618286
1.41880759
1.390497712
1.278454397
1.192093689
1.08332056
1.047364193
1.021569307
0.987052958
0.937069675
0.929272684
0.926348535
0.980978425
1.031209341
1.068808929
1.088307786
1.089999812
1.104861519
1.10174316
1.046386212
1.041443814
1.008122337
1.037421101
0.987105365
0.981051962
1.018121276
1.071113401
1.131489535
1.063563504
1.059876091
1.05562796
1.09358389
1.098664892
1.117166631
1.182225959
1.236314134
1.277031055
1.238868989
1.226320011
1.142854024
1.140254587
1.135714918
1.208188636
1.218329257
1.27623239
1.264005499
1.246882884
1.227360524
1.209229455
1.261724068
1.229739251
1.246296922
1.225446628
1.293115623
1.33773269
1.418480307
1.489286881
1.606162885
1.692424125
1.775918666
1.796729086
1.858850611
1.860436063
1.92151768
1.950824282
1.972284799
1.964664619
1.968024137
1.986200849
1.985791497
1.911071652
1.891168573
1.889513115
1.97616043
2.019439806
2.033037616
2.0519857
2.082015572
2.084719429
1.995776524
1.932997958
1.947765437
1.992988853
2.058536851
2.001692623
1.976919915
1.915606578
1.905940312
1.869494516
1.897049082
1.914848396
1.940080655
1.9001181
1.898390158
1.848876514
1.887065194
1.861542169
1.937989739
1.928766587
1.959745844
1.983543705
1.914188504
1.818142889
1.724019724
1.711367545
1.666250475
1.600516681
1.505325223
1.440059727
1.409075611
1.466571072
1.470520174
1.420833074
1.284678865
1.20814093
1.180153061
1.159178128
1.147575612
1.097644839
1.049004109
1.014894814
1.050948867
1.163548747
1.36221801
1.435291324
1.583248072
1.203128216
1.401837237
0.958887414
1.001284896
0.720740299
0.722945038
0.71798191
0.708738989
