0.052083
0.0518756
0.0517733
0.0517475
0.0516905
0.0517554
0.0518838
0.0520667
0.0523625
0.0527183
0.0532665
0.0540198
0.0549383
0.0562022
0.057773
0.059613
0.0618417
0.0643298
0.0671029
0.070212
0.0734271
0.076909
0.0805947
0.0842239
0.0880639
0.0919161
0.0956229
0.0994403
0.103066
0.106527
0.109919
0.113
0.115976
0.118817
0.121354
0.123959
0.126441
0.128831
0.13133
0.133703
0.136154
0.138557
0.140743
0.142928
0.144894
0.146607
0.148108
0.149309
0.150264
0.150935
0.151293
0.151373
0.151167
0.150651
0.149817
0.148676
0.147212
0.145454
0.143576
0.141443
0.139202
0.137002
0.134716
0.132561
0.130454
0.128428
0.126618
0.124854
0.12325
0.121846
0.120516
0.119364
0.118342
0.117406
0.116612
0.115879
0.115222
0.114659
0.114118
0.113625
0.113165
0.112721
0.112305
0.11187
0.111426
0.11098
0.110478
0.109974
0.109415
0.108839
0.108262
0.107647
0.107053
0.106487
0.105931
0.105453
0.105021
0.104668
0.104401
0.104218
0.104163
0.104198
0.104353
0.104606
0.105021
0.105575
0.106271
0.107133
0.108167
0.109332
0.110756
0.112259
0.114031
0.116007
0.118084
0.120422
0.122884
0.125507
0.128354
0.131201
0.13427
0.137436
0.140577
0.143899
0.147131
0.150408
0.153723
0.156815
0.159946
0.162932
0.165778
0.168594
0.171227
0.173852
0.176464
0.178937
0.18153
0.184083
0.186767
0.189691
0.192748
0.196289
0.20026
0.204511
0.209413
0.21462
0.220439
0.226847
0.233503
0.240943
0.248924
0.257232
0.266349
0.275433
0.285133
0.295024
0.304625
0.314622
0.32423
0.33369
0.343043
0.351633
0.360057
0.367872
0.375022
0.381743
0.387573
0.392898
0.397629
0.401565
0.40509
0.407992
0.410515
0.412666
0.414417
0.415942
0.417182
0.418205
0.419096
0.419753
0.420303
0.420693
0.420902
0.420957
0.420847
0.420591
0.420115
0.419547
0.418806
0.418005
0.417107
0.416127
0.415168
0.414118
0.412985
0.41188
0.410627
0.409358
0.40799
0.406517
0.405105
0.403535
0.401929
0.400279
0.398598
0.396986
0.395283
0.393676
0.392081
0.390565
0.389115
0.387771
0.386536
0.385409
0.38434
0.383421
0.382553
0.381805
0.381173
0.380573
0.380037
0.379543
0.379052
0.378628
0.378228
0.377864
0.377504
0.377166
0.376841
0.37652
