0.527360535
0.538916535
0.53422779
0.529465868
0.526781693
0.546542663
0.547295893
0.567175315
0.58351536
0.614203427
0.630621416
0.645182152
0.677164645
0.694355757
0.717815874
0.72368049
0.716960742
0.691752728
0.664580823
0.637992562
0.606389443
0.589625006
0.575990608
0.575826274
0.559159712
0.562865739
0.555246592
0.557990438
0.555639462
0.558349268
0.563917071
0.567813937
0.566137518
0.574957683
0.587172681
0.616531172
0.663238005
0.730959692
0.816918088
0.864765433
0.88819758
0.906991307
0.905139044
0.920472637
0.917812086
0.942990281
0.928554844
0.913446325
0.865863626
0.843075768
0.819062451
0.825489409
0.827353688
0.871117141
0.910157194
0.97207218
0.984953714
0.990443186
0.983170103
0.943260454
0.915286628
0.879796206
0.85541023
0.842300582
0.844209928
0.878588873
0.904778297
0.949271901
0.960263719
0.988110932
1.006635532
1.032737077
1.062459143
1.050465704
1.062801001
1.054736797
1.107878482
1.160215513
1.268089777
1.349110685
1.418961637
1.464313186
1.419944088
1.41980185
1.415491535
1.464829752
1.472003281
1.48204914
1.490750124
1.441603509
1.464271596
1.451994537
1.467973875
1.414499833
1.475297807
1.481444285
1.520666791
1.409886834
1.388037075
1.272196907
1.180022092
1.072291754
1.043208154
1.019539445
0.983687483
0.935311286
0.927896354
0.924774897
0.972377069
1.023965192
1.066386541
1.0926369
1.090435259
1.101681657
1.09618413
1.042583134
1.038070569
1.004406368
1.034531029
0.982749588
0.97792754
1.015578083
1.066743444
1.123629754
1.055607548
1.055107064
1.052971693
1.091250725
1.095714832
1.115127748
1.180891338
1.233359951
1.276049208
1.240392643
1.227688871
1.134903656
1.133594866
1.131669768
1.212513963
1.220496762
1.277869559
1.258441879
1.242139908
1.224813627
1.209528527
1.255863085
1.215491729
1.235158669
1.220622412
1.296479781
1.336269276
1.415755811
1.482191075
1.606820728
1.692983895
1.755998665
1.787671667
1.823047666
1.8474982
1.88504378
1.934863647
1.95582775
1.961803831
1.945998212
1.979188176
1.935976611
1.881060822
1.852568385
1.881713539
1.939915254
1.973243788
1.955672931
1.993542092
2.014047162
1.957990473
1.91513469
1.876207082
1.925381801
1.951679987
1.9921292
1.998388305
1.972676157
1.926963891
1.919432291
1.871234534
1.90596195
1.884906671
1.903480109
1.841689679
1.86285452
1.853790457
1.888508144
1.831932612
1.857717339
1.835105973
1.897182301
1.801568848
1.868124822
1.779234648
1.870911958
1.733013806
1.609764136
1.571304192
1.493312121
1.480266365
1.428351981
1.410388088
1.380340246
1.346840079
1.208723005
1.124436979
1.062243961
1.084298352
1.041261643
1.019295955
0.977471117
1.019514909
1.071309113
1.18848155
1.122022271
1.079960529
0.985450844
1.077367905
1.150196958
0.926261325
0.806468638
0.688135978
0.73224817
0.598439173
0.612567628
