0.524346784
0.541119098
0.544661028
0.539664233
0.52924527
0.533437515
0.546496651
0.572592289
0.587887897
0.599109684
0.620538953
0.661316787
0.687926074
0.729264416
0.735082304
0.751695506
0.714175886
0.698634512
0.662856059
0.642133339
0.602916722
0.59021215
0.573147534
0.574110421
0.559441305
0.560921028
0.557096672
0.554470614
0.554155571
0.556302501
0.563509415
0.568744687
0.567770949
0.578783349
0.587700447
0.616810302
0.660777987
0.731594705
0.812030713
0.862521356
0.884565579
0.908304958
0.901811302
0.920488055
0.914792387
0.944434408
0.931932978
0.919954796
0.881003958
0.855137151
0.831272878
0.828989678
0.83543794
0.879965799
0.919035175
0.971406714
0.980945439
0.986950211
0.983720547
0.947949747
0.918160542
0.879794337
0.853665507
0.840901771
0.845040739
0.877282314
0.904703878
0.946082624
0.963308729
0.992246809
1.013332822
1.033625408
1.062259576
1.04966863
1.060153464
1.05203528
1.10406739
1.15641767
1.266979908
1.342550131
1.420522712
1.459406741
1.437356931
1.435947521
1.431560642
1.482776984
1.47443093
1.486765319
1.483954924
1.447017841
1.474600046
1.465457231
1.479642267
1.419785373
1.469255422
1.476644657
1.519501607
1.410977583
1.392322102
1.289574571
1.198428133
1.088774931
1.0466154
1.018935813
0.981442877
0.931728008
0.925561541
0.921989731
0.9746093
1.025170678
1.065740746
1.086908091
1.088774413
1.099427679
1.09567114
1.037880821
1.033174571
0.999812699
1.031294016
0.979781295
0.975319473
1.01269631
1.065337078
1.122604326
1.056312966
1.054776936
1.050795563
1.08932108
1.099424369
1.118679608
1.184799983
1.231322812
1.277477653
1.238544739
1.230148827
1.139414171
1.138949775
1.134522788
1.208789982
1.215929894
1.274261483
1.265015311
1.247790088
1.224885254
1.204789395
1.252715856
1.222443052
1.243881577
1.226227202
1.298068292
1.336408639
1.421756689
1.476828076
1.599386102
1.668581991
1.757695132
1.782837301
1.866941623
1.873853211
1.930500759
1.940006389
2.012127146
1.993028701
1.995867574
1.968698745
1.922354554
1.892514867
1.88538956
1.923010191
1.976593528
1.976681758
1.974720573
1.977780098
2.024015457
1.989828522
1.984737154
1.946010228
2.017859616
2.006890584
2.023858713
1.983269684
1.935643317
1.910243475
1.909630323
1.898483302
1.922978167
1.876288046
1.927963764
1.927334712
1.918926839
1.889169002
1.867298735
1.87208728
1.864656167
1.867383024
1.89356022
1.827511455
1.766425837
1.727038064
1.685104969
1.673623289
1.587053625
1.60455077
1.49434448
1.451574806
1.379598882
1.35570739
1.344834529
1.305813776
1.23309906
1.161663589
1.088575148
1.076864166
1.046660118
1.04514143
1.026742256
1.021965014
1.064841384
1.122658584
1.100170686
1.189407011
1.032325665
1.024464617
0.826614634
0.837989952
0.826199439
0.777486683
0.676347144
0.625025548
0.640090836