0.056241
0.0560315
0.055933
0.055881
0.0558519
0.0559254
0.0560257
0.0562584
0.0565573
0.0569379
0.0575353
0.0583121
0.0592939
0.0606346
0.0622798
0.0642254
0.0665762
0.0692014
0.0720991
0.0753482
0.0786978
0.0823172
0.0861581
0.0899376
0.0939154
0.0979012
0.101741
0.105703
0.109418
0.113037
0.116599
0.119828
0.122958
0.125929
0.128605
0.13132
0.133925
0.136469
0.139088
0.14159
0.144158
0.146675
0.148969
0.151248
0.153279
0.155037
0.15659
0.157814
0.15878
0.159452
0.159793
0.159867
0.159616
0.159053
0.158142
0.156949
0.155398
0.153546
0.151559
0.149296
0.146932
0.144597
0.142201
0.139926
0.137721
0.135599
0.13369
0.131858
0.130189
0.12872
0.12734
0.126141
0.125073
0.124104
0.123277
0.122518
0.121851
0.121267
0.120716
0.120215
0.119745
0.119294
0.118884
0.118451
0.118002
0.11755
0.117047
0.116542
0.11597
0.115392
0.114781
0.114155
0.11355
0.112955
0.112378
0.111881
0.111425
0.111046
0.110774
0.110583
0.110509
0.110539
0.110701
0.110962
0.111385
0.111955
0.112674
0.113543
0.114623
0.115822
0.117287
0.118822
0.120641
0.122652
0.124789
0.127166
0.129702
0.132387
0.135314
0.138214
0.141365
0.144601
0.14781
0.151188
0.154488
0.15783
0.161187
0.164327
0.167525
0.17058
0.173472
0.176353
0.179066
0.181773
0.184478
0.187009
0.189676
0.192278
0.194972
0.197921
0.200999
0.204586
0.208593
0.212892
0.217819
0.223043
0.228839
0.235186
0.24178
0.249239
0.257182
0.265435
0.274505
0.28354
0.293202
0.303042
0.31263
0.322581
0.33218
0.341611
0.35099
0.359533
0.368017
0.375867
0.383038
0.389771
0.395675
0.401016
0.405813
0.409785
0.413362
0.416315
0.41887
0.421084
0.422835
0.424397
0.425666
0.426731
0.427646
0.428375
0.428965
0.429364
0.429636
0.429738
0.429689
0.429429
0.429055
0.428558
0.427881
0.427126
0.426304
0.425394
0.424486
0.423453
0.42238
0.421268
0.420022
0.418752
0.417393
0.415926
0.414505
0.412971
0.411393
0.409797
0.408144
0.406541
0.404973
0.403402
0.401947
0.400507
0.399212
0.397958
0.396823
0.395802
0.394824
0.393987
0.393154
0.392481
0.391835
0.391305
0.390826
0.390361
0.389916
0.389483
0.389093
0.388723
0.388331
0.388028
0.387697
0.387361
