0.534824346
0.522788633
0.512393096
0.525946634
0.542381759
0.548567089
0.556619531
0.568966552
0.597707834
0.620264437
0.650947443
0.673812745
0.700465673
0.714790132
0.732039746
0.737895899
0.725668973
0.693316173
0.666750164
0.639892707
0.607586709
0.59321702
0.577223032
0.577047781
0.563815204
0.565003685
0.562872789
0.562644436
0.558758934
0.557690132
0.562154202
0.567869214
0.568836759
0.577559815
0.591608202
0.622717195
0.670610543
0.737561856
0.816844411
0.85948922
0.884736001
0.909522106
0.911027298
0.921659637
0.915118905
0.938864684
0.93134904
0.916812286
0.877433119
0.853538036
0.827712096
0.82959851
0.833979394
0.88143345
0.916983124
0.973956945
0.98086625
0.988777848
0.978235461
0.946231566
0.913969665
0.880401251
0.853443991
0.844873192
0.848577542
0.883477173
0.910076021
0.952519094
0.966882534
0.994346414
1.012186702
1.037261952
1.065033192
1.06549315
1.07322295
1.062174888
1.104853596
1.156566165
1.267987535
1.341972929
1.417630316
1.460931422
1.436506776
1.428433833
1.434299276
1.473666621
1.478846957
1.474758384
1.48447155
1.454207456
1.482856232
1.46738597
1.46956535
1.422597401
1.478022306
1.479627663
1.507554672
1.40459439
1.384316568
1.271388251
1.184323098
1.079070505
1.04858521
1.020715051
0.984784287
0.9366413
0.92811694
0.9257587
0.971990268
1.024038055
1.062508264
1.087450434
1.088847435
1.098955449
1.093439866
1.038504141
1.032164975
1.000270434
1.027240913
0.979595604
0.974634145
1.015789589
1.067290286
1.1250447
1.05488022
1.052958617
1.050028686
1.090070617
1.097235741
1.116236938
1.183607112
1.233084506
1.275986661
1.23501772
1.224998155
1.137673007
1.139615105
1.135523807
1.213421647
1.217580299
1.276620918
1.262238567
1.25279801
1.233817334
1.212506399
1.256309403
1.218247276
1.237038848
1.221684682
1.298804801
1.341938689
1.425933016
1.478805936
1.596779435
1.672845239
1.770382489
1.815141396
1.859685716
1.877599872
1.904840023
1.958570383
1.99270347
2.018331483
2.009480493
1.997221056
1.961381974
1.904631308
1.877960267
1.89928202
1.958328893
2.040096941
2.019390567
2.056999138
1.997694971
1.982010255
1.947958731
1.969922353
2.011437895
2.002996694
2.043858129
2.009766064
2.014177822
1.96945764
1.956698749
1.893779496
1.888236006
1.861546097
1.89191015
1.860839873
1.905349849
1.888575255
1.939361147
1.900961257
1.924691604
1.957210804
1.947601066
1.93634828
1.819218865
1.758315603
1.699155759
1.601158227
1.606580751
1.583511045
1.55595196
1.453485523
1.401558783
1.400441352
1.412283407
1.375044024
1.279410131
1.237322172
1.195117654
1.164114821
1.102998353
1.036826668
1.017902685
1.02685717
1.190794228
1.25050912
1.406209994
1.222479992
1.249330355
1.175686134
1.053467466
0.97798931
0.78006024
0.887394998
0.728012251
0.927575655
0.743518149
