0.0487862
0.0485873
0.0484845
0.0484452
0.048431
0.0485144
0.048621
0.0488028
0.0490555
0.0493912
0.0498995
0.0505636
0.0513986
0.0525302
0.0539447
0.0555876
0.0575709
0.059806
0.0622549
0.0650186
0.0678259
0.0709036
0.0741486
0.0773391
0.0807304
0.084127
0.0874045
0.0907663
0.093928
0.0970151
0.0999971
0.10274
0.105376
0.107882
0.110124
0.112386
0.114583
0.116695
0.118891
0.12099
0.123158
0.125288
0.127211
0.12913
0.130844
0.132341
0.133645
0.134678
0.135492
0.136058
0.136337
0.136387
0.136179
0.135686
0.13492
0.133875
0.132551
0.130937
0.129221
0.127262
0.125213
0.123191
0.121105
0.119151
0.117227
0.115387
0.113737
0.11215
0.110688
0.10942
0.108209
0.107171
0.106231
0.105396
0.104667
0.103994
0.103402
0.102886
0.102404
0.101953
0.101547
0.101133
0.100763
0.100371
0.0999708
0.0995701
0.0991173
0.0986706
0.0981709
0.0976467
0.0971113
0.0965561
0.0960208
0.095492
0.09499
0.0945535
0.0941484
0.0938103
0.0935614
0.0933752
0.0933022
0.0932983
0.0934179
0.0936334
0.0939794
0.09444
0.0950398
0.0957769
0.0966763
0.0976793
0.0989093
0.100204
0.101755
0.103469
0.105271
0.107295
0.109448
0.111742
0.114228
0.116697
0.119386
0.122155
0.124903
0.127795
0.130604
0.133463
0.136326
0.139014
0.14173
0.144328
0.146779
0.149237
0.151522
0.153856
0.156173
0.158403
0.1607
0.162964
0.165289
0.167832
0.170492
0.173591
0.177075
0.180807
0.185098
0.189632
0.194657
0.200207
0.206
0.212505
0.219453
0.226686
0.234595
0.242553
0.251082
0.259799
0.268306
0.277171
0.285694
0.294132
0.302509
0.310223
0.317836
0.324871
0.331354
0.337428
0.342774
0.347573
0.351913
0.355506
0.358766
0.361467
0.363784
0.365806
0.367414
0.368866
0.370014
0.370995
0.371818
0.37246
0.373002
0.373355
0.373586
0.37365
0.373586
0.373348
0.372989
0.37249
0.371871
0.371152
0.370373
0.369544
0.368692
0.367782
0.366784
0.365809
0.364737
0.363627
0.362477
0.361215
0.360005
0.358701
0.357344
0.355957
0.354482
0.353039
0.351572
0.350117
0.348743
0.347359
0.346071
0.344895
0.343726
0.342701
0.341704
0.340869
0.340048
0.339311
0.338672
0.338094
0.337595
0.337118
0.336626
0.336239
0.335817
0.335463
0.335129
0.334847
0.334565
0.334257
