0.527149002
0.528861089
0.553693963
0.573304021
0.569777168
0.564248123
0.563060515
0.577384265
0.613825613
0.636950146
0.675244511
0.701452339
0.714289724
0.732491107
0.735345203
0.745293446
0.726218216
0.697408695
0.666515913
0.637454229
0.599610244
0.592564985
0.577070142
0.577284499
0.559829459
0.562181723
0.56245779
0.557268778
0.557811926
0.558038273
0.564582942
0.567312809
0.568634881
0.581728741
0.594021145
0.623946812
0.67131464
0.738393911
0.816877153
0.859544452
0.88347889
0.907304477
0.904954481
0.923096286
0.918630657
0.945113649
0.932627288
0.918679405
0.872074476
0.847335779
0.824824668
0.831989158
0.8370447
0.88206016
0.919087693
0.97621115
0.985353795
0.993276313
0.984827713
0.945697705
0.91443818
0.876984535
0.852313811
0.841188618
0.846296123
0.879888101
0.906780418
0.945962271
0.960893397
0.990998297
1.012336382
1.03664637
1.061982418
1.054980789
1.066286881
1.056502589
1.105408013
1.153969927
1.261405453
1.341312809
1.418085613
1.46195411
1.4277232
1.42604814
1.421256191
1.468368774
1.473752219
1.481308358
1.485900993
1.447137945
1.474470256
1.46609719
1.474003429
1.425127642
1.473573203
1.481044372
1.506108577
1.40734364
1.386340511
1.279890431
1.187218718
1.07809374
1.044314654
1.01849998
0.985455651
0.935505436
0.92770196
0.919826364
0.970770659
1.0203876
1.062985137
1.085457224
1.087776684
1.099164524
1.096717843
1.041890587
1.038354014
1.002965252
1.031507125
0.980832829
0.976493043
1.014633528
1.064646656
1.122369537
1.059151225
1.057648727
1.054819411
1.090816165
1.094868765
1.11225097
1.176674393
1.228246806
1.273980407
1.235807913
1.22696206
1.141052623
1.137501061
1.130641661
1.198189722
1.211302346
1.271121915
1.264601724
1.247650069
1.228982588
1.206547335
1.257598085
1.224946819
1.247401164
1.22755434
1.302447684
1.337684695
1.421177575
1.4813688
1.604478995
1.675453763
1.737666908
1.758993232
1.827712025
1.862985825
1.922579693
1.928157979
1.942654437
1.95609798
1.968073195
1.970510566
1.91927829
1.872269473
1.864181444
1.898410461
1.970708135
2.041316924
2.048316042
2.040212747
2.022359788
1.978823129
1.98108757
1.942476644
1.945666712
1.948953728
1.977452984
2.023622904
1.973444348
1.968372988
1.941443132
1.912716687
1.937487377
1.915369602
1.922777271
1.850285096
1.884704759
1.887232222
1.908925366
1.838222657
1.851651918
1.869327605
1.929950146
1.922873863
1.907479557
1.803531888
1.74508409
1.61848688
1.575158786
1.50671219
1.46066468
1.456966584
1.445405192
1.457054297
1.333795934
1.303866325
1.226532073
1.194696504
1.165030442
1.134301777
1.118044453
1.028028724
1.004568298
0.990946832
1.072161863
1.1664032
0.994234944
1.020131334
0.916536711
1.255890718
0.96201098
1.057835698
0.863706513
0.886738964
0.746987489
0.776886928
0.891754446
