0.0492719
0.0490503
0.0489668
0.048934
0.0489036
0.0489759
0.0490895
0.0492891
0.0495457
0.049878
0.0503792
0.0510566
0.0518971
0.0530332
0.0544601
0.0561232
0.0581276
0.0603952
0.0628987
0.0657101
0.0686091
0.0717542
0.0750837
0.0783669
0.0818331
0.0852976
0.0886711
0.0921303
0.0953587
0.0984928
0.101557
0.104361
0.107066
0.10965
0.111957
0.114318
0.116589
0.118776
0.121051
0.123239
0.125461
0.127659
0.129649
0.131626
0.133397
0.134949
0.136308
0.137378
0.138229
0.13882
0.139126
0.139176
0.13895
0.138448
0.137651
0.136584
0.135218
0.133581
0.131844
0.129865
0.127802
0.125771
0.123673
0.121691
0.119759
0.117903
0.116231
0.114623
0.113151
0.111859
0.11065
0.109586
0.108647
0.107787
0.107074
0.106389
0.105804
0.105283
0.104798
0.104349
0.103934
0.103531
0.103155
0.102769
0.102364
0.101961
0.101501
0.101049
0.100536
0.100006
0.0994627
0.0989166
0.0983648
0.0978336
0.0973164
0.0968603
0.0964532
0.0961131
0.0958596
0.0956729
0.0955931
0.0956017
0.0957282
0.0959477
0.0963008
0.0967835
0.097402
0.0981559
0.0990844
0.100121
0.101395
0.102733
0.104323
0.106089
0.107955
0.110037
0.112263
0.114607
0.117194
0.11974
0.122518
0.125375
0.12821
0.131202
0.134126
0.137075
0.140042
0.142823
0.145627
0.148295
0.150808
0.153313
0.155679
0.158081
0.160454
0.162741
0.165116
0.16747
0.169861
0.172488
0.175189
0.178363
0.181928
0.185759
0.190176
0.194888
0.200107
0.205868
0.211891
0.218677
0.225905
0.233372
0.241662
0.249959
0.258823
0.267916
0.27676
0.285999
0.294894
0.303696
0.312453
0.320466
0.328406
0.335749
0.342475
0.34878
0.354292
0.359303
0.363821
0.367546
0.370932
0.373711
0.376136
0.378211
0.379889
0.381358
0.382559
0.383563
0.384426
0.385106
0.385641
0.386051
0.386271
0.386346
0.386265
0.386024
0.385611
0.385113
0.384501
0.383796
0.383053
0.382216
0.3814
0.380508
0.37954
0.378567
0.377436
0.376278
0.375055
0.373644
0.372289
0.370794
0.369266
0.367656
0.365867
0.364301
0.362647
0.361049
0.359525
0.358024
0.356689
0.355384
0.354253
0.353284
0.352294
0.351451
0.350679
0.350015
0.349412
0.348866
0.348424
0.348007
0.347582
0.347205
0.346832
0.346527
0.34618
0.345893
0.34561
0.345318
